Incident energy ; 
Incident energy ; 
Incident energy ; σ(E)
1.0E-5 ; 92.75807
1.0625E-5 ; 90.02914
1.125E-5 ; 87.53204
1.1875E-5 ; 85.23581
1.25E-5 ; 83.11499
1.375E-5 ; 79.31831
1.5E-5 ; 76.00971
1.625E-5 ; 73.09327
1.75E-5 ; 70.49752
1.875E-5 ; 68.16799
2.0E-5 ; 66.06232
2.1875E-5 ; 63.25215
2.375E-5 ; 60.78507
2.5625E-5 ; 58.59692
2.75E-5 ; 56.63921
2.9375E-5 ; 54.87444
3.125E-5 ; 53.27315
3.3125E-5 ; 51.81178
3.5E-5 ; 50.47128
3.875E-5 ; 48.09309
4.25E-5 ; 46.04256
4.625E-5 ; 44.25156
5.0E-5 ; 42.67026
5.3125E-5 ; 41.48541
5.625E-5 ; 40.40312
5.9375E-5 ; 39.40964
6.25E-5 ; 38.49365
6.875E-5 ; 36.85811
7.5E-5 ; 35.43778
8.125E-5 ; 34.19012
8.75E-5 ; 33.08348
9.375E-5 ; 32.09375
1.0E-4 ; 31.20217
1.0625E-4 ; 30.39396
1.125E-4 ; 29.65724
1.1875E-4 ; 28.98236
1.25E-4 ; 28.36141
1.375E-4 ; 27.256
1.5E-4 ; 26.29991
1.625E-4 ; 25.46341
1.75E-4 ; 24.72437
1.875E-4 ; 24.06598
2.0E-4 ; 23.47517
2.1875E-4 ; 22.6937
2.375E-4 ; 22.01493
2.5625E-4 ; 21.41922
2.75E-4 ; 20.89178
2.9375E-4 ; 20.42119
3.125E-4 ; 19.99851
3.3125E-4 ; 19.61661
3.5E-4 ; 19.26975
3.875E-4 ; 18.66319
4.25E-4 ; 18.15008
4.625E-4 ; 17.71018
5.0E-4 ; 17.32877
5.3125E-4 ; 17.04759
5.625E-4 ; 16.79443
5.9375E-4 ; 16.56529
6.25E-4 ; 16.35692
6.875E-4 ; 15.99218
7.5E-4 ; 15.68354
8.125E-4 ; 15.41906
8.75E-4 ; 15.18999
9.375E-4 ; 14.98973
0.001 ; 14.81323
0.0010625 ; 14.65655
0.001125 ; 14.51656
0.0011875 ; 14.39076
0.00125 ; 14.27713
0.001375 ; 14.08002
0.0015 ; 13.91501
0.001625 ; 13.77493
0.00175 ; 13.65458
0.001875 ; 13.5501
0.002 ; 13.45856
0.0021875 ; 13.34074
0.002375 ; 13.24143
0.0025625 ; 13.15661
0.00275 ; 13.08332
0.0029375 ; 13.01938
0.003125 ; 12.9631
0.0033125 ; 12.91319
0.0035 ; 12.86862
0.003875 ; 12.79242
0.00425 ; 12.72967
0.004625 ; 12.67709
0.005 ; 12.6324
0.0053125 ; 12.59997
0.005625 ; 12.57115
0.0059375 ; 12.54536
0.00625 ; 12.52215
0.006875 ; 12.48206
0.0075 ; 12.44866
0.008125 ; 12.42039
0.00875 ; 12.39616
0.009375 ; 12.37515
0.01 ; 12.35678
0.010625 ; 12.34057
0.01125 ; 12.32615
0.011875 ; 12.31326
0.0125 ; 12.30165
0.01375 ; 12.2816
0.015 ; 12.26489
0.01625 ; 12.25076
0.0175 ; 12.23864
0.01875 ; 12.22813
0.02 ; 12.21894
0.021325 ; 12.21037
0.02265 ; 12.20281
0.023975 ; 12.19608
0.0253 ; 12.19005
0.02684375 ; 12.18378
0.0283875 ; 12.17819
0.031475 ; 12.16865
0.0345625 ; 12.16082
0.03765 ; 12.15427
0.0407375 ; 12.14871
0.043825 ; 12.14393
0.0469125 ; 12.13978
0.05 ; 12.13614
0.053125 ; 12.13288
0.05625 ; 12.12999
0.059375 ; 12.1274
0.0625 ; 12.12506
0.06875 ; 12.12103
0.075 ; 12.11766
0.08125 ; 12.11481
0.0875 ; 12.11236
0.09375 ; 12.11024
0.1 ; 12.10838
0.10625 ; 12.10673
0.1125 ; 12.10526
0.11875 ; 12.10395
0.125 ; 12.10276
0.1375 ; 12.10071
0.15 ; 12.09899
0.1625 ; 12.09752
0.175 ; 12.09626
0.1875 ; 12.09516
0.2 ; 12.09419
0.21875 ; 12.09294
0.2375 ; 12.09187
0.25625 ; 12.09094
0.275 ; 12.09013
0.29375 ; 12.08942
0.3125 ; 12.08878
0.33125 ; 12.0882
0.35 ; 12.08768
0.3875 ; 12.08677
0.425 ; 12.08599
0.5 ; 12.08472
0.625 ; 12.08311
0.75 ; 12.08187
0.875 ; 12.08084
1.0 ; 12.07994
1.25 ; 12.07838
1.5 ; 12.07701
1.75 ; 12.07574
2.0 ; 12.07453
2.375 ; 12.07281
2.75 ; 12.07114
3.125 ; 12.06952
3.5 ; 12.06791
4.25 ; 12.06475
5.0 ; 12.06165
6.25 ; 12.05652
7.5 ; 12.05143
8.75 ; 12.04638
10.0 ; 12.04134
12.5 ; 12.03131
15.0 ; 12.02132
17.5 ; 12.01136
20.0 ; 12.00143
22.5 ; 11.99153
25.0 ; 11.98166
27.5 ; 11.97181
30.0 ; 11.96198
32.5 ; 11.95217
35.0 ; 11.94239
40.0 ; 11.92291
45.0 ; 11.90352
50.0 ; 11.88421
55.0 ; 11.865
60.0 ; 11.84586
65.0 ; 11.82683
70.0 ; 11.80788
80.0 ; 11.77023
90.0 ; 11.73292
100.0 ; 11.69595
125.0 ; 11.60494
150.0 ; 11.51593
175.0 ; 11.42883
200.0 ; 11.3436
225.0 ; 11.26017
250.0 ; 11.17848
275.0 ; 11.09847
300.0 ; 11.0201
325.0 ; 10.94331
350.0 ; 10.86805
400.0 ; 10.72197
450.0 ; 10.58147
500.0 ; 10.44624
550.0 ; 10.31599
600.0 ; 10.19043
650.0 ; 10.06931
700.0 ; 9.952393
800.0 ; 9.730263
900.0 ; 9.522414
950.0 ; 9.423403
975.0 ; 9.375065
1000.0 ; 9.327486
1018.836 ; 9.29213
1037.671 ; 9.257195
1056.507 ; 9.222684
1065.925 ; 9.205596
1075.342 ; 9.188626
1085.349 ; 9.170738
1090.352 ; 9.161861
1095.355 ; 9.153033
1100.359 ; 9.144265
1105.362 ; 9.135569
1107.864 ; 9.131259
1110.365 ; 9.126981
1112.867 ; 9.122738
1115.368 ; 9.118542
1117.576 ; 9.114885
1119.783 ; 9.111288
1121.99 ; 9.107764
1124.197 ; 9.104335
1126.405 ; 9.101031
1127.509 ; 9.099447
1128.612 ; 9.09792
1129.716 ; 9.096458
1130.819 ; 9.09508
1131.923 ; 9.093801
1133.026 ; 9.092651
1134.056 ; 9.091723
1135.086 ; 9.090972
1136.116 ; 9.090447
1137.146 ; 9.090222
1138.176 ; 9.090408
1138.691 ; 9.090701
1139.206 ; 9.091161
1139.721 ; 9.091819
1140.236 ; 9.092715
1140.751 ; 9.093902
1141.266 ; 9.095446
1141.818 ; 9.097596
1142.37 ; 9.100397
1142.922 ; 9.10405
1143.474 ; 9.10884
1144.026 ; 9.115195
1144.302 ; 9.119152
1144.578 ; 9.123771
1144.854 ; 9.129196
1145.13 ; 9.135618
1145.406 ; 9.143288
1145.681 ; 9.152518
1145.994 ; 9.165589
1146.151 ; 9.173491
1146.307 ; 9.182484
1146.464 ; 9.192945
1146.62 ; 9.205087
1146.776 ; 9.21943
1146.932 ; 9.236591
1147.089 ; 9.257541
1147.245 ; 9.283126
1147.401 ; 9.314932
1147.557 ; 9.354874
1147.714 ; 9.405781
1147.792 ; 9.436015
1147.87 ; 9.47012
1147.948 ; 9.508593
1148.026 ; 9.551976
1148.104 ; 9.600855
1148.182 ; 9.655857
1148.265 ; 9.721854
1148.348 ; 9.796373
1148.431 ; 9.880279
1148.513 ; 9.973249
1148.596 ; 10.07841
1148.679 ; 10.19554
1148.762 ; 10.32542
1148.844 ; 10.46695
1149.01 ; 10.79587
1149.175 ; 11.18104
1149.341 ; 11.62643
1149.506 ; 12.12154
1149.893 ; 13.4191
1150.279 ; 14.6916
1150.481 ; 15.23677
1150.683 ; 15.63638
1150.842 ; 15.82388
1151.0 ; 15.88683
1151.132 ; 15.84217
1151.263 ; 15.71211
1151.394 ; 15.50195
1151.525 ; 15.22012
1151.81 ; 14.41445
1152.095 ; 13.45811
1152.367 ; 12.52999
1152.639 ; 11.68233
1152.775 ; 11.30784
1152.911 ; 10.97158
1153.047 ; 10.67482
1153.183 ; 10.41702
1153.313 ; 10.20528
1153.442 ; 10.02615
1153.572 ; 9.873846
1153.701 ; 9.747471
1153.831 ; 9.641755
1153.96 ; 9.555171
1154.09 ; 9.483422
1154.219 ; 9.424989
1154.349 ; 9.376647
1154.478 ; 9.337183
1154.608 ; 9.304327
1154.737 ; 9.277234
1154.867 ; 9.254376
1154.996 ; 9.235227
1155.126 ; 9.218784
1155.255 ; 9.20475
1155.463 ; 9.185853
1155.67 ; 9.170518
1155.877 ; 9.157754
1156.188 ; 9.142116
1156.499 ; 9.12957
1156.81 ; 9.119265
1157.12 ; 9.110667
1157.431 ; 9.103339
1157.742 ; 9.097037
1158.053 ; 9.091557
1158.363 ; 9.086761
1158.674 ; 9.0825
1158.985 ; 9.078699
1159.606 ; 9.072205
1160.228 ; 9.066822
1160.849 ; 9.062279
1161.471 ; 9.058357
1162.092 ; 9.054922
1162.766 ; 9.051614
1163.439 ; 9.048657
1164.113 ; 9.04597
1164.786 ; 9.043511
1165.46 ; 9.04123
1166.133 ; 9.039103
1167.48 ; 9.035197
1168.827 ; 9.031649
1170.174 ; 9.028363
1171.521 ; 9.025263
1172.867 ; 9.022306
1174.421 ; 9.019033
1175.975 ; 9.015875
1177.529 ; 9.012808
1179.083 ; 9.009811
1180.637 ; 9.006872
1182.191 ; 9.003978
1185.299 ; 8.998305
1188.407 ; 8.992734
1191.515 ; 8.987242
1194.623 ; 8.98181
1197.73 ; 8.976426
1201.046 ; 8.970723
1204.361 ; 8.965058
1210.991 ; 8.953812
1220.523 ; 8.937802
1230.054 ; 8.92193
1239.585 ; 8.906181
1249.116 ; 8.890554
1268.178 ; 8.859548
1287.24 ; 8.828931
1325.364 ; 8.768701
1363.488 ; 8.709646
1443.052 ; 8.59067
1522.616 ; 8.477116
1681.744 ; 8.261031
2000.0 ; 7.877396
2152.968 ; 7.712462
2305.935 ; 7.556475
2316.862 ; 7.545752
2330.179 ; 7.532753
2333.508 ; 7.529514
2336.837 ; 7.526279
2338.502 ; 7.524663
2340.166 ; 7.523049
2341.831 ; 7.521435
2342.663 ; 7.520629
2343.495 ; 7.519823
2343.944 ; 7.519389
2344.392 ; 7.518955
2344.616 ; 7.518739
2344.84 ; 7.518522
2345.064 ; 7.518306
2345.288 ; 7.518089
2345.512 ; 7.517873
2345.736 ; 7.517657
2345.96 ; 7.517441
2346.184 ; 7.517225
2346.408 ; 7.51701
2346.632 ; 7.516795
2346.856 ; 7.51658
2347.08 ; 7.516366
2347.262 ; 7.516192
2347.443 ; 7.516019
2347.625 ; 7.515846
2347.806 ; 7.515674
2348.169 ; 7.51533
2348.532 ; 7.514987
2348.916 ; 7.514623
2349.299 ; 7.514259
2349.56 ; 7.51401
2349.82 ; 7.51376
2350.0 ; 7.513587
2350.26 ; 7.513335
2350.519 ; 7.513083
2350.837 ; 7.512772
2351.154 ; 7.51246
2351.709 ; 7.511914
2351.987 ; 7.51164
2352.264 ; 7.511368
2352.423 ; 7.511212
2352.582 ; 7.511056
2352.741 ; 7.5109
2352.899 ; 7.510746
2353.058 ; 7.510591
2353.216 ; 7.510437
2353.375 ; 7.510282
2353.533 ; 7.510129
2353.692 ; 7.509975
2353.851 ; 7.509821
2354.01 ; 7.509667
2354.168 ; 7.509514
2354.327 ; 7.50936
2354.485 ; 7.509207
2354.644 ; 7.509054
2354.802 ; 7.508901
2355.06 ; 7.508652
2355.318 ; 7.508403
2355.576 ; 7.508154
2355.833 ; 7.507906
2356.349 ; 7.507409
2356.864 ; 7.506913
2357.895 ; 7.50592
2358.926 ; 7.504927
2360.988 ; 7.502944
2363.049 ; 7.500963
2367.49 ; 7.4967
2371.931 ; 7.492445
2380.813 ; 7.483957
2400.163 ; 7.465621
2419.513 ; 7.447382
2458.212 ; 7.411496
2535.61 ; 7.341205
2690.407 ; 7.206279
3000.0 ; 6.957055
3250.0 ; 6.774447
3500.0 ; 6.605673
3750.0 ; 6.448923
4000.0 ; 6.30269
4250.0 ; 6.16571
4500.0 ; 6.036919
5000.0 ; 5.800324
5500.0 ; 5.586989
6000.0 ; 5.392469
6500.0 ; 5.213333
7000.0 ; 5.046886
7500.0 ; 4.890975
8000.0 ; 4.743853
8500.0 ; 4.604073
9000.0 ; 4.470435
10000.0 ; 4.217587
12296.65 ; 3.680656
12392.34 ; 3.658962
12414.48 ; 3.653944
12425.55 ; 3.651433
12431.08 ; 3.650177
12433.85 ; 3.649547
12435.23 ; 3.649232
12436.61 ; 3.648918
12437.55 ; 3.648704
12438.02 ; 3.648596
12438.48 ; 3.648492
12438.95 ; 3.648385
12439.42 ; 3.648278
12439.89 ; 3.648172
12440.35 ; 3.648069
12440.59 ; 3.648016
12440.82 ; 3.647965
12441.06 ; 3.647912
12441.29 ; 3.647862
12441.53 ; 3.64781
12441.76 ; 3.647761
12441.99 ; 3.647712
12442.22 ; 3.647664
12442.46 ; 3.647614
12442.69 ; 3.647567
12442.92 ; 3.647521
12443.15 ; 3.647476
12443.62 ; 3.647386
12444.08 ; 3.647302
12444.44 ; 3.64724
12444.79 ; 3.647182
12445.5 ; 3.647071
12446.92 ; 3.646872
12447.67 ; 3.646771
12448.41 ; 3.646666
12448.81 ; 3.646605
12449.2 ; 3.64654
12449.61 ; 3.646467
12450.0 ; 3.646392
12450.41 ; 3.646306
12450.85 ; 3.646206
12451.24 ; 3.646111
12451.63 ; 3.646011
12452.4 ; 3.645798
12453.16 ; 3.645574
12453.89 ; 3.645352
12454.62 ; 3.64513
12454.99 ; 3.645019
12455.35 ; 3.644912
12455.71 ; 3.644807
12456.07 ; 3.644704
12456.52 ; 3.644578
12456.96 ; 3.644457
12457.41 ; 3.644337
12457.63 ; 3.64428
12457.85 ; 3.644223
12458.08 ; 3.644164
12458.3 ; 3.644108
12458.52 ; 3.644053
12458.74 ; 3.643998
12458.97 ; 3.643942
12459.19 ; 3.643888
12459.63 ; 3.643782
12460.08 ; 3.643674
12460.52 ; 3.64357
12460.97 ; 3.643464
12461.41 ; 3.643362
12461.86 ; 3.643257
12462.3 ; 3.643156
12463.19 ; 3.642951
12464.41 ; 3.642671
12465.62 ; 3.642395
12468.05 ; 3.641841
12472.9 ; 3.640739
12482.6 ; 3.638538
12502.0 ; 3.634144
12512.35 ; 3.631801
12552.79 ; 3.622649
12593.22 ; 3.613504
12674.08 ; 3.595223
12835.81 ; 3.558673
13159.27 ; 3.485582
13806.18 ; 3.339062
15100.0 ; 3.04083
17087.31 ; 2.550786
17392.65 ; 2.470003
17545.32 ; 2.42897
17621.66 ; 2.408302
17659.83 ; 2.397892
17697.99 ; 2.387447
17706.73 ; 2.385047
17715.46 ; 2.382644
17719.83 ; 2.381439
17724.2 ; 2.380232
17726.39 ; 2.379625
17728.57 ; 2.379021
17730.75 ; 2.378416
17731.84 ; 2.378113
17732.93 ; 2.377811
17734.07 ; 2.377497
17734.64 ; 2.377342
17735.2 ; 2.377192
17735.77 ; 2.377041
17736.33 ; 2.376899
17736.62 ; 2.376827
17736.9 ; 2.37676
17737.18 ; 2.376696
17737.46 ; 2.376634
17737.75 ; 2.376574
17738.03 ; 2.376519
17738.31 ; 2.37647
17738.59 ; 2.376426
17738.88 ; 2.376386
17739.16 ; 2.376356
17739.44 ; 2.376333
17739.72 ; 2.376319
17740.01 ; 2.376316
17740.29 ; 2.376324
17740.57 ; 2.376345
17740.85 ; 2.37638
17741.14 ; 2.376431
17741.42 ; 2.376497
17741.7 ; 2.376581
17741.98 ; 2.376683
17742.47 ; 2.376908
17742.96 ; 2.377196
17743.45 ; 2.377549
17743.93 ; 2.377956
17744.42 ; 2.378431
17744.9 ; 2.378947
17745.87 ; 2.380094
17746.84 ; 2.381269
17747.81 ; 2.382305
17748.34 ; 2.382748
17748.86 ; 2.383065
17749.42 ; 2.383252
17749.87 ; 2.383276
17750.0 ; 2.383261
17750.04 ; 2.383254
17750.14 ; 2.383233
17750.24 ; 2.383207
17750.43 ; 2.38314
17750.57 ; 2.383077
17750.86 ; 2.38291
17751.15 ; 2.382696
17751.67 ; 2.382202
17752.18 ; 2.381593
17753.14 ; 2.380189
17754.1 ; 2.378591
17755.07 ; 2.376946
17755.55 ; 2.376166
17756.03 ; 2.375425
17756.51 ; 2.374734
17756.99 ; 2.374097
17757.47 ; 2.373517
17757.95 ; 2.372995
17758.23 ; 2.372716
17758.5 ; 2.372464
17758.78 ; 2.37222
17759.05 ; 2.372001
17759.33 ; 2.371789
17759.6 ; 2.371598
17759.88 ; 2.371413
17760.15 ; 2.371246
17760.43 ; 2.371085
17760.7 ; 2.370938
17760.98 ; 2.370796
17761.25 ; 2.370666
17761.53 ; 2.370538
17761.8 ; 2.370422
17762.08 ; 2.370306
17762.35 ; 2.3702
17762.63 ; 2.370094
17762.9 ; 2.369995
17763.18 ; 2.369896
17763.45 ; 2.369803
17764.0 ; 2.36962
17764.55 ; 2.369445
17765.1 ; 2.369275
17765.65 ; 2.369108
17766.2 ; 2.368944
17766.74 ; 2.368785
17767.6 ; 2.368535
17768.46 ; 2.368287
17770.18 ; 2.367796
17773.61 ; 2.366826
17777.04 ; 2.365865
17780.47 ; 2.364907
17787.34 ; 2.362996
17794.2 ; 2.361093
17809.03 ; 2.356984
17823.86 ; 2.352875
17853.52 ; 2.344652
17912.84 ; 2.328124
18031.47 ; 2.294912
18277.54 ; 2.224788
18523.61 ; 2.152278
19015.74 ; 2.004094
20000.0 ; 1.685032
20071.57 ; 1.660407
20107.35 ; 1.648026
20125.24 ; 1.641815
20134.19 ; 1.638703
20143.13 ; 1.635591
20147.28 ; 1.634146
20149.35 ; 1.633426
20151.42 ; 1.632705
20152.46 ; 1.632343
20153.49 ; 1.631986
20154.53 ; 1.631625
20155.05 ; 1.631445
20155.56 ; 1.631269
20156.08 ; 1.631091
20156.6 ; 1.630913
20157.12 ; 1.630736
20157.63 ; 1.630564
20158.15 ; 1.63039
20158.67 ; 1.630218
20158.93 ; 1.630133
20159.19 ; 1.630049
20159.7 ; 1.629886
20160.04 ; 1.62978
20160.37 ; 1.629678
20160.7 ; 1.629578
20161.03 ; 1.62948
20161.36 ; 1.629384
20161.69 ; 1.62929
20162.02 ; 1.629198
20162.35 ; 1.629109
20163.02 ; 1.628934
20163.68 ; 1.62877
20164.34 ; 1.628615
20165.0 ; 1.628465
20166.16 ; 1.628207
20167.32 ; 1.627939
20167.94 ; 1.627783
20168.56 ; 1.627614
20169.35 ; 1.627376
20169.87 ; 1.627204
20170.0 ; 1.627159
20170.53 ; 1.626967
20171.17 ; 1.626718
20171.73 ; 1.626486
20172.29 ; 1.626242
20173.26 ; 1.625798
20174.22 ; 1.625343
20175.35 ; 1.624806
20175.91 ; 1.624543
20176.47 ; 1.624286
20177.04 ; 1.62403
20177.6 ; 1.623785
20178.16 ; 1.623546
20178.72 ; 1.623314
20179.11 ; 1.623156
20179.49 ; 1.623005
20179.87 ; 1.622856
20180.25 ; 1.622709
20180.63 ; 1.622564
20181.01 ; 1.622421
20181.39 ; 1.62228
20181.77 ; 1.62214
20182.16 ; 1.621997
20182.54 ; 1.621859
20182.92 ; 1.621722
20183.3 ; 1.621586
20183.68 ; 1.62145
20184.06 ; 1.621315
20184.44 ; 1.62118
20184.82 ; 1.621046
20185.59 ; 1.620774
20186.35 ; 1.620506
20187.11 ; 1.620239
20187.87 ; 1.619972
20189.39 ; 1.619439
20190.91 ; 1.618906
20193.48 ; 1.618005
20196.05 ; 1.617105
20202.15 ; 1.614966
20208.25 ; 1.612826
20220.45 ; 1.608542
20244.85 ; 1.599956
20293.65 ; 1.582715
20437.49 ; 1.531213
20581.32 ; 1.478701
20868.98 ; 1.37184
21444.3 ; 1.147165
22019.62 ; 0.908538
22307.28 ; 0.7853164
22451.11 ; 0.7226321
22594.94 ; 0.6596061
22633.47 ; 0.6426643
22671.99 ; 0.6257115
22691.26 ; 0.617227
22710.52 ; 0.6087485
22720.15 ; 0.6045131
22729.78 ; 0.6002838
22739.41 ; 0.5960682
22744.23 ; 0.593968
22749.04 ; 0.5918829
22754.82 ; 0.5893998
22757.71 ; 0.5881728
22760.6 ; 0.5869605
22763.49 ; 0.5857687
22766.38 ; 0.584606
22769.27 ; 0.5834862
22770.72 ; 0.5829472
22772.16 ; 0.5824323
22773.93 ; 0.5818361
22775.7 ; 0.5812952
22777.47 ; 0.5808347
22778.35 ; 0.5806482
22779.23 ; 0.5805009
22780.12 ; 0.5804051
22781.0 ; 0.5803837
22781.88 ; 0.5804679
22782.76 ; 0.5807104
22783.21 ; 0.5809216
22783.65 ; 0.5812043
22784.09 ; 0.5815816
22784.53 ; 0.5820771
22784.97 ; 0.5827204
22785.41 ; 0.5835479
22785.85 ; 0.5846041
22786.29 ; 0.585943
22786.74 ; 0.5876719
22787.18 ; 0.5897918
22787.62 ; 0.5924259
22788.06 ; 0.5956767
22788.5 ; 0.5996603
22788.94 ; 0.6045059
22789.38 ; 0.6103546
22789.82 ; 0.6173571
22790.27 ; 0.6258766
22790.71 ; 0.635697
22791.15 ; 0.6471485
22791.59 ; 0.6603771
22792.03 ; 0.6755104
22792.47 ; 0.6926491
22792.91 ; 0.7118577
22793.35 ; 0.7331544
22793.8 ; 0.7570566
22794.24 ; 0.7823994
22795.12 ; 0.8381718
22796.88 ; 0.9606049
22797.84 ; 1.024556
22798.8 ; 1.078745
22799.36 ; 1.103472
22799.92 ; 1.121882
22800.0 ; 1.123949
22800.24 ; 1.129266
22800.47 ; 1.133088
22800.93 ; 1.136892
22801.0 ; 1.137017
22801.22 ; 1.136622
22801.43 ; 1.135137
22801.86 ; 1.128762
22802.4 ; 1.11464
22802.94 ; 1.094226
22803.75 ; 1.053522
22804.55 ; 1.004322
22807.51 ; 0.8018592
22808.25 ; 0.7577444
22808.99 ; 0.7189874
22809.36 ; 0.701762
22809.73 ; 0.6859872
22810.1 ; 0.6716421
22810.46 ; 0.6590172
22810.83 ; 0.647353
22811.2 ; 0.6369463
22811.57 ; 0.6277148
22811.94 ; 0.6195696
22812.31 ; 0.6124185
22812.68 ; 0.6061685
22813.05 ; 0.6007282
22813.41 ; 0.5961278
22813.78 ; 0.5920297
22814.15 ; 0.5884927
22814.52 ; 0.5854444
22814.89 ; 0.582819
22815.26 ; 0.5805572
22815.63 ; 0.5786063
22816.0 ; 0.57692
22816.37 ; 0.5754577
22816.74 ; 0.5741842
22817.11 ; 0.5730695
22817.48 ; 0.5720878
22817.85 ; 0.5712175
22818.59 ; 0.5697405
22819.32 ; 0.5685408
22820.06 ; 0.5675083
22820.8 ; 0.5666079
22821.54 ; 0.5658036
22822.27 ; 0.5650806
22823.75 ; 0.5637683
22825.22 ; 0.5626069
22826.97 ; 0.5613497
22828.71 ; 0.5601959
22830.46 ; 0.5591062
22832.2 ; 0.5580758
22833.95 ; 0.5570811
22835.69 ; 0.5561248
22839.18 ; 0.5542812
22842.67 ; 0.5525099
22846.16 ; 0.5507892
22849.65 ; 0.5491048
22853.13 ; 0.547452
22860.65 ; 0.5439452
22868.16 ; 0.5405032
22875.68 ; 0.5370953
22883.19 ; 0.5337164
22898.22 ; 0.5270048
22913.24 ; 0.5203433
22943.3 ; 0.5070814
22973.35 ; 0.4938833
23076.4 ; 0.4489393
23222.39 ; 0.386121
23368.38 ; 0.3248283
23660.35 ; 0.2085368
23806.34 ; 0.155564
23879.34 ; 0.1305766
23952.33 ; 0.1069884
24025.33 ; 0.08516974
24098.32 ; 0.06517452
24171.31 ; 0.04725668
24207.81 ; 0.039145
24244.3 ; 0.03170521
24270.07 ; 0.02688065
24295.83 ; 0.02240517
24321.59 ; 0.01821561
24347.35 ; 0.01446535
24373.12 ; 0.01112388
24386.0 ; 0.009605978
24398.88 ; 0.008195138
24411.76 ; 0.00689851
24424.64 ; 0.005714102
24437.52 ; 0.004628424
24450.4 ; 0.00367219
24458.99 ; 0.003101879
24467.58 ; 0.002585706
24476.17 ; 0.00212448
24484.75 ; 0.001719376
24493.34 ; 0.001368757
24497.64 ; 0.001214393
24501.93 ; 0.001075556
24506.23 ; 9.513857E-4
24510.52 ; 8.422496E-4
24514.81 ; 7.478804E-4
24519.1 ; 6.683812E-4
24524.47 ; 5.89991E-4
24527.16 ; 5.596142E-4
24529.84 ; 5.352889E-4
24532.53 ; 5.168613E-4
24535.21 ; 5.044959E-4
24537.9 ; 4.981284E-4
24540.58 ; 4.978339E-4
24543.54 ; 5.045596E-4
24546.49 ; 5.186633E-4
24549.44 ; 5.401933E-4
24552.39 ; 5.691873E-4
24555.34 ; 6.056827E-4
24558.29 ; 6.497174E-4
24561.24 ; 7.013302E-4
24564.19 ; 7.605597E-4
24570.1 ; 9.022907E-4
24576.0 ; 0.001074744
24581.9 ; 0.001278453
24587.8 ; 0.001513846
24593.17 ; 0.001756587
24598.54 ; 0.00202712
24603.91 ; 0.002323731
24609.27 ; 0.002645956
24620.01 ; 0.003373683
24630.74 ; 0.00421232
24641.48 ; 0.005165525
24652.21 ; 0.00623363
24662.95 ; 0.007420896
24673.68 ; 0.008735197
24687.64 ; 0.01062861
24701.59 ; 0.01272674
24715.55 ; 0.01504059
24729.5 ; 0.01757094
24743.46 ; 0.02033084
24757.41 ; 0.0233267
24785.32 ; 0.03005012
24813.23 ; 0.03776419
24841.14 ; 0.04669046
24869.05 ; 0.05652016
24896.95 ; 0.06751735
24922.72 ; 0.07887901
24948.48 ; 0.09131392
24974.24 ; 0.10477
25000.0 ; 0.1193814
25032.6 ; 0.1397806
25065.19 ; 0.162294
25097.79 ; 0.1870592
25130.38 ; 0.2141961
25162.98 ; 0.2438648
25195.57 ; 0.2762888
25260.75 ; 0.3497491
25325.94 ; 0.4359513
25391.13 ; 0.5366032
25456.32 ; 0.6535753
25521.5 ; 0.7889842
25566.32 ; 0.8957954
25611.14 ; 1.012116
25655.96 ; 1.137753
25700.77 ; 1.279752
25790.41 ; 1.603185
25835.23 ; 1.790522
25880.04 ; 1.997839
25924.86 ; 2.221283
25969.68 ; 2.467656
26059.31 ; 3.040797
26104.13 ; 3.365209
26148.94 ; 3.731767
26238.57 ; 4.557669
26328.21 ; 5.575678
26373.03 ; 6.148522
26417.84 ; 6.796785
26507.47 ; 8.279253
26552.29 ; 9.143143
26597.1 ; 10.10462
26641.92 ; 11.14549
26686.74 ; 12.30011
26776.37 ; 15.01341
26821.19 ; 16.56147
26866.0 ; 18.32275
26955.63 ; 22.31209
27007.85 ; 25.0679
27060.06 ; 28.14367
27164.48 ; 35.29358
27268.9 ; 43.9558
27373.32 ; 54.11631
27477.74 ; 65.21174
27582.16 ; 76.3303
27686.58 ; 86.15446
27791.0 ; 93.20444
27879.13 ; 96.06227
27967.25 ; 96.0577
