Incident energy ; 
Incident energy ; 
Incident energy ; σ(E)
1.0E-5 ; 131.0442
1.0625E-5 ; 127.1315
1.125E-5 ; 123.5496
1.1875E-5 ; 120.2544
1.25E-5 ; 117.2095
1.375E-5 ; 111.7548
1.5E-5 ; 106.9971
1.625E-5 ; 102.7995
1.75E-5 ; 99.06008
1.875E-5 ; 95.70113
2.0E-5 ; 92.66221
2.1875E-5 ; 88.60202
2.375E-5 ; 85.03269
2.5625E-5 ; 81.86264
2.75E-5 ; 79.0226
2.9375E-5 ; 76.45902
3.125E-5 ; 74.12977
3.3125E-5 ; 72.0012
3.5E-5 ; 70.04605
3.875E-5 ; 66.5705
4.25E-5 ; 63.56575
4.625E-5 ; 60.93429
5.0E-5 ; 58.60473
5.3125E-5 ; 56.85493
5.625E-5 ; 55.25306
5.9375E-5 ; 53.77938
6.25E-5 ; 52.41765
6.875E-5 ; 49.97827
7.5E-5 ; 47.85055
8.125E-5 ; 45.97332
8.75E-5 ; 44.301
9.375E-5 ; 42.79883
1.0E-4 ; 41.43979
1.0625E-4 ; 40.2025
1.125E-4 ; 39.06981
1.1875E-4 ; 38.02776
1.25E-4 ; 37.06487
1.375E-4 ; 35.33997
1.5E-4 ; 33.83544
1.625E-4 ; 32.50804
1.75E-4 ; 31.32553
1.875E-4 ; 30.26333
2.0E-4 ; 29.30235
2.1875E-4 ; 28.0184
2.375E-4 ; 26.88968
2.5625E-4 ; 25.88722
2.75E-4 ; 24.98912
2.9375E-4 ; 24.17845
3.125E-4 ; 23.44187
3.3125E-4 ; 22.76876
3.5E-4 ; 22.15049
3.875E-4 ; 21.05142
4.25E-4 ; 20.10124
4.625E-4 ; 19.2691
5.0E-4 ; 18.53243
5.3125E-4 ; 17.9791
5.625E-4 ; 17.47254
5.9375E-4 ; 17.00652
6.25E-4 ; 16.57591
6.875E-4 ; 15.80451
7.5E-4 ; 15.13167
8.125E-4 ; 14.53804
8.75E-4 ; 14.00921
9.375E-4 ; 13.53419
0.001 ; 13.10443
0.0010625 ; 12.71316
0.001125 ; 12.35498
0.0011875 ; 12.02546
0.00125 ; 11.72097
0.001375 ; 11.17551
0.0015 ; 10.69975
0.001625 ; 10.27999
0.00175 ; 9.906058
0.001875 ; 9.570169
0.002 ; 9.266283
0.0021875 ; 8.86027
0.002375 ; 8.503341
0.0025625 ; 8.18634
0.00275 ; 7.902339
0.0029375 ; 7.645981
0.003125 ; 7.413056
0.0033125 ; 7.200197
0.0035 ; 7.004679
0.003875 ; 6.657116
0.00425 ; 6.356629
0.004625 ; 6.09347
0.005 ; 5.860497
0.0053125 ; 5.685504
0.005625 ; 5.525301
0.0059375 ; 5.377918
0.00625 ; 5.24173
0.006875 ; 4.99776
0.0075 ; 4.78496
0.008125 ; 4.597216
0.00875 ; 4.42997
0.009375 ; 4.279748
0.01 ; 4.143848
0.010625 ; 4.02013
0.01125 ; 3.906875
0.011875 ; 3.802685
0.0125 ; 3.706409
0.01375 ; 3.533929
0.015 ; 3.38346
0.01625 ; 3.250682
0.0175 ; 3.132383
0.01875 ; 3.02612
0.02 ; 2.929992
0.021325 ; 2.837493
0.02265 ; 2.753262
0.023975 ; 2.67614
0.0253 ; 2.605182
0.02684375 ; 2.529245
0.0283875 ; 2.459591
0.031475 ; 2.33594
0.0345625 ; 2.229159
0.03765 ; 2.135726
0.0407375 ; 2.053098
0.043825 ; 1.979364
0.0469125 ; 1.913049
0.05 ; 1.853
0.053125 ; 1.797666
0.05625 ; 1.747046
0.059375 ; 1.700508
0.0625 ; 1.657518
0.06875 ; 1.58047
0.075 ; 1.513168
0.08125 ; 1.453733
0.0875 ; 1.400778
0.09375 ; 1.353217
0.1 ; 1.310199
0.10625 ; 1.271052
0.1125 ; 1.235248
0.11875 ; 1.202355
0.125 ; 1.171993
0.1375 ; 1.117548
0.15 ; 1.069928
0.1625 ; 1.027883
0.175 ; 0.9904385
0.1875 ; 0.9568435
0.2 ; 0.9265049
0.21875 ; 0.885943
0.2375 ; 0.850201
0.25625 ; 0.8184489
0.275 ; 0.7900083
0.29375 ; 0.7643411
0.3125 ; 0.7410272
0.33125 ; 0.71976
0.35 ; 0.7003195
0.3875 ; 0.665656
0.425 ; 0.6355349
0.5 ; 0.5859702
0.625 ; 0.524059
0.75 ; 0.4782669
0.875 ; 0.44283
1.0 ; 0.4142657
1.25 ; 0.3703651
1.5 ; 0.3379812
1.75 ; 0.3128878
2.0 ; 0.2926364
2.375 ; 0.2684578
2.75 ; 0.2494398
3.125 ; 0.2339015
3.5 ; 0.2209347
4.25 ; 0.2003584
5.0 ; 0.1846198
6.25 ; 0.1649711
7.5 ; 0.1504438
8.75 ; 0.139159
10.0 ; 0.1300586
12.5 ; 0.116266
15.0 ; 0.1061159
17.5 ; 0.09825894
20.0 ; 0.09194822
22.5 ; 0.0867343
25.0 ; 0.08234251
27.5 ; 0.07858164
30.0 ; 0.07531409
32.5 ; 0.07232287
35.0 ; 0.0696585
40.0 ; 0.06509795
45.0 ; 0.06131862
50.0 ; 0.05812394
55.0 ; 0.05537834
60.0 ; 0.05298623
65.0 ; 0.05085964
70.0 ; 0.04896763
80.0 ; 0.04573306
90.0 ; 0.04305805
100.0 ; 0.0408015
125.0 ; 0.03628794
150.0 ; 0.0329602
175.0 ; 0.03038455
200.0 ; 0.02832105
225.0 ; 0.02662511
250.0 ; 0.02520516
275.0 ; 0.02399851
300.0 ; 0.02296023
325.0 ; 0.02196713
350.0 ; 0.02108647
400.0 ; 0.0195935
450.0 ; 0.01837635
500.0 ; 0.01736753
550.0 ; 0.01652095
600.0 ; 0.01580378
650.0 ; 0.01511095
700.0 ; 0.01450789
800.0 ; 0.01353083
900.0 ; 0.01285173
950.0 ; 0.01267288
975.0 ; 0.01265885
1000.0 ; 0.01273449
1018.836 ; 0.01287349
1037.671 ; 0.01316253
1056.507 ; 0.01373239
1065.925 ; 0.01420672
1075.342 ; 0.01489189
1085.349 ; 0.01600301
1090.352 ; 0.01679351
1095.355 ; 0.017819
1100.359 ; 0.01917813
1105.362 ; 0.0209751
1107.864 ; 0.02214252
1110.365 ; 0.02353673
1112.867 ; 0.02522044
1115.368 ; 0.02727694
1117.576 ; 0.02949594
1119.783 ; 0.03220905
1121.99 ; 0.03557522
1124.197 ; 0.03979514
1126.405 ; 0.04516988
1127.509 ; 0.04848131
1128.612 ; 0.05230077
1129.716 ; 0.05674259
1130.819 ; 0.06193963
1131.923 ; 0.06808538
1133.026 ; 0.0754118
1134.056 ; 0.08360977
1135.086 ; 0.09346999
1136.116 ; 0.1054407
1137.146 ; 0.1202081
1138.176 ; 0.1388245
1138.691 ; 0.1500084
1139.206 ; 0.1627454
1139.721 ; 0.1773347
1140.236 ; 0.1941549
1140.751 ; 0.213689
1141.266 ; 0.2365578
1141.818 ; 0.2656939
1142.37 ; 0.30092
1142.922 ; 0.3440875
1143.474 ; 0.3978705
1144.026 ; 0.4662508
1144.302 ; 0.5077055
1144.578 ; 0.5553337
1144.854 ; 0.610483
1145.13 ; 0.6749129
1145.406 ; 0.7509762
1145.681 ; 0.8415501
1145.994 ; 0.9685243
1146.151 ; 1.044741
1146.307 ; 1.131091
1146.464 ; 1.231123
1146.62 ; 1.346772
1146.776 ; 1.482896
1146.932 ; 1.645213
1147.089 ; 1.842785
1147.245 ; 2.083417
1147.401 ; 2.381858
1147.557 ; 2.755907
1147.714 ; 3.231837
1147.792 ; 3.514199
1147.87 ; 3.832517
1147.948 ; 4.191405
1148.026 ; 4.595896
1148.104 ; 5.051428
1148.182 ; 5.56382
1148.265 ; 6.178416
1148.348 ; 6.872142
1148.431 ; 7.65302
1148.513 ; 8.518028
1148.596 ; 9.496257
1148.679 ; 10.58556
1148.762 ; 11.79324
1148.844 ; 13.10903
1149.01 ; 16.16626
1149.175 ; 19.74554
1149.341 ; 23.88352
1149.506 ; 28.48258
1149.893 ; 40.53279
1150.279 ; 52.34648
1150.481 ; 57.40637
1150.683 ; 61.11398
1150.842 ; 62.85263
1151.0 ; 63.43484
1151.132 ; 63.01845
1151.263 ; 61.8093
1151.394 ; 59.85682
1151.525 ; 57.23925
1151.81 ; 49.75864
1152.095 ; 40.8814
1152.367 ; 32.26808
1152.639 ; 24.40327
1152.775 ; 20.92937
1152.911 ; 17.81062
1153.047 ; 15.05868
1153.183 ; 12.66862
1153.313 ; 10.70596
1153.442 ; 9.046107
1153.572 ; 7.635277
1153.701 ; 6.465111
1153.831 ; 5.486726
1153.96 ; 4.685872
1154.09 ; 4.02271
1154.219 ; 3.483078
1154.349 ; 3.037103
1154.478 ; 2.673463
1154.608 ; 2.371137
1154.737 ; 2.122244
1154.867 ; 1.912647
1154.996 ; 1.737418
1155.126 ; 1.587294
1155.255 ; 1.459479
1155.463 ; 1.287977
1155.67 ; 1.149455
1155.877 ; 1.034746
1156.188 ; 0.8951845
1156.499 ; 0.7842357
1156.81 ; 0.6940185
1157.12 ; 0.6195864
1157.431 ; 0.5569121
1157.742 ; 0.5037145
1158.053 ; 0.4581198
1158.363 ; 0.4188299
1158.674 ; 0.3845023
1158.985 ; 0.3544163
1159.606 ; 0.304452
1160.228 ; 0.2647648
1160.849 ; 0.2327991
1161.471 ; 0.2065705
1162.092 ; 0.1848089
1162.766 ; 0.1650639
1163.439 ; 0.1485186
1164.113 ; 0.1344853
1164.786 ; 0.1225202
1165.46 ; 0.1122077
1166.133 ; 0.1032812
1167.48 ; 0.08864285
1168.827 ; 0.07726932
1170.174 ; 0.06828094
1171.521 ; 0.06097486
1172.867 ; 0.05495664
1174.421 ; 0.04926417
1175.975 ; 0.04460806
1177.529 ; 0.04075022
1179.083 ; 0.03751742
1180.637 ; 0.03478097
1182.191 ; 0.03244412
1185.299 ; 0.02873439
1188.407 ; 0.02586477
1191.515 ; 0.02362076
1194.623 ; 0.02183797
1197.73 ; 0.02039745
1201.046 ; 0.01914351
1204.361 ; 0.01811341
1210.991 ; 0.01653929
1220.523 ; 0.01501034
1230.054 ; 0.01395853
1239.585 ; 0.01322286
1249.116 ; 0.01269643
1268.178 ; 0.01193058
1287.24 ; 0.01144099
1325.364 ; 0.01082277
1363.488 ; 0.0104179
1443.052 ; 0.009885798
1522.616 ; 0.009512604
1681.744 ; 0.008925457
2000.0 ; 0.0081239
2152.968 ; 0.007799787
2305.935 ; 0.007553821
2316.862 ; 0.007570643
2330.179 ; 0.007707706
2333.508 ; 0.007804763
2336.837 ; 0.007998291
2338.502 ; 0.008174365
2340.166 ; 0.008458852
2341.831 ; 0.008964179
2342.663 ; 0.009387912
2343.495 ; 0.01005367
2343.944 ; 0.01060252
2344.392 ; 0.01139815
2344.616 ; 0.01194241
2344.84 ; 0.01262904
2345.064 ; 0.01350613
2345.288 ; 0.0146368
2345.512 ; 0.01610218
2345.736 ; 0.0180037
2345.96 ; 0.02046418
2346.184 ; 0.02362686
2346.408 ; 0.02765139
2346.632 ; 0.03270579
2346.856 ; 0.03895388
2347.08 ; 0.04653799
2347.262 ; 0.05375441
2347.443 ; 0.06189399
2347.625 ; 0.0710311
2347.806 ; 0.08100504
2348.169 ; 0.1031741
2348.532 ; 0.1268593
2348.916 ; 0.1509842
2349.299 ; 0.1708886
2349.56 ; 0.1804595
2349.82 ; 0.1858818
2350.0 ; 0.1869869
2350.26 ; 0.1846584
2350.519 ; 0.1779231
2350.837 ; 0.1644389
2351.154 ; 0.14673
2351.709 ; 0.1110165
2351.987 ; 0.09331898
2352.264 ; 0.07703498
2352.423 ; 0.06852751
2352.582 ; 0.0607183
2352.741 ; 0.05364114
2352.899 ; 0.04734158
2353.058 ; 0.04172618
2353.216 ; 0.03683485
2353.375 ; 0.03256167
2353.533 ; 0.02890804
2353.692 ; 0.02576974
2353.851 ; 0.02311145
2354.01 ; 0.02087354
2354.168 ; 0.01900975
2354.327 ; 0.01744373
2354.485 ; 0.01614769
2354.644 ; 0.01506264
2354.802 ; 0.01416536
2355.06 ; 0.01300779
2355.318 ; 0.01213845
2355.576 ; 0.01147575
2355.833 ; 0.0109627
2356.349 ; 0.01022261
2356.864 ; 0.009719136
2357.895 ; 0.009072357
2358.926 ; 0.008674753
2360.988 ; 0.008219097
2363.049 ; 0.00797367
2367.49 ; 0.007711456
2371.931 ; 0.007591926
2380.813 ; 0.007478829
2400.163 ; 0.007393302
2419.513 ; 0.007342254
2458.212 ; 0.007265673
2535.61 ; 0.007141126
2690.407 ; 0.006921903
3000.0 ; 0.006545929
3250.0 ; 0.006270229
3500.0 ; 0.006026024
3750.0 ; 0.005806864
4000.0 ; 0.005607892
4250.0 ; 0.005425392
4500.0 ; 0.005256496
5000.0 ; 0.004950827
5500.0 ; 0.004677615
6000.0 ; 0.004428302
6500.0 ; 0.004266574
7000.0 ; 0.004118692
7500.0 ; 0.003981567
8000.0 ; 0.003853049
8500.0 ; 0.003731546
9000.0 ; 0.003615871
10000.0 ; 0.00339873
12296.65 ; 0.003193978
12392.34 ; 0.003204252
12414.48 ; 0.00323668
12425.55 ; 0.003300352
12431.08 ; 0.003388635
12433.85 ; 0.003481739
12435.23 ; 0.003561894
12436.61 ; 0.003703166
12437.55 ; 0.003882389
12438.02 ; 0.004020974
12438.48 ; 0.004206304
12438.95 ; 0.004466812
12439.42 ; 0.004826771
12439.89 ; 0.005322345
12440.35 ; 0.005982777
12440.59 ; 0.006413605
12440.82 ; 0.006892167
12441.06 ; 0.007469034
12441.29 ; 0.008105189
12441.53 ; 0.00886609
12441.76 ; 0.009698349
12441.99 ; 0.01064159
12442.22 ; 0.01170594
12442.46 ; 0.01295662
12442.69 ; 0.01429967
12442.92 ; 0.01579373
12443.15 ; 0.01744753
12443.62 ; 0.02135502
12444.08 ; 0.02590165
12444.44 ; 0.02996915
12444.79 ; 0.03434358
12445.5 ; 0.04436935
12446.92 ; 0.0671655
12447.67 ; 0.07882194
12448.41 ; 0.08846718
12448.81 ; 0.09248883
12449.2 ; 0.09540901
12449.61 ; 0.09729325
12450.0 ; 0.09788673
12450.41 ; 0.09722503
12450.85 ; 0.09508237
12451.24 ; 0.09202398
12451.63 ; 0.08799357
12452.4 ; 0.07777038
12453.16 ; 0.06584077
12453.89 ; 0.05391101
12454.62 ; 0.04256318
12454.99 ; 0.03728272
12455.35 ; 0.03253605
12455.71 ; 0.0282135
12456.07 ; 0.02433448
12456.52 ; 0.02011268
12456.96 ; 0.01663591
12457.41 ; 0.01369879
12457.63 ; 0.01247165
12457.85 ; 0.0113704
12458.08 ; 0.01034422
12458.3 ; 0.009473126
12458.52 ; 0.008701096
12458.74 ; 0.008019462
12458.97 ; 0.007394394
12459.19 ; 0.006871908
12459.63 ; 0.006017859
12460.08 ; 0.005360802
12460.52 ; 0.004882375
12460.97 ; 0.004520475
12461.41 ; 0.004259837
12461.86 ; 0.004063405
12462.3 ; 0.00392126
12463.19 ; 0.003732052
12464.41 ; 0.003588708
12465.62 ; 0.003506211
12468.05 ; 0.003409458
12472.9 ; 0.003314585
12482.6 ; 0.003242403
12502.0 ; 0.003200851
12512.35 ; 0.00319227
12552.79 ; 0.003179588
12593.22 ; 0.003173063
12674.08 ; 0.003164534
12835.81 ; 0.003151654
13159.27 ; 0.003128834
13806.18 ; 0.003087087
15100.0 ; 0.003018424
17087.31 ; 0.002961935
17392.65 ; 0.002961928
17545.32 ; 0.002967821
17621.66 ; 0.002977006
17659.83 ; 0.002996425
17697.99 ; 0.003066119
17706.73 ; 0.003114338
17715.46 ; 0.003206486
17719.83 ; 0.003286955
17724.2 ; 0.003417001
17726.39 ; 0.003515297
17728.57 ; 0.003651097
17730.75 ; 0.003852853
17731.84 ; 0.003999512
17732.93 ; 0.004205679
17734.07 ; 0.004543575
17734.64 ; 0.004796094
17735.2 ; 0.005131829
17735.77 ; 0.005602439
17736.33 ; 0.006245878
17736.62 ; 0.006673172
17736.9 ; 0.00716183
17737.18 ; 0.007738633
17737.46 ; 0.008418712
17737.75 ; 0.00925029
17738.03 ; 0.01019598
17738.31 ; 0.01130389
17738.59 ; 0.01259807
17738.88 ; 0.01416306
17739.16 ; 0.01592062
17739.44 ; 0.01795185
17739.72 ; 0.02028994
17740.01 ; 0.02307236
17740.29 ; 0.02614478
17740.57 ; 0.02963423
17740.85 ; 0.03357851
17741.14 ; 0.03818312
17741.42 ; 0.04316787
17741.7 ; 0.04871669
17741.98 ; 0.05486062
17742.47 ; 0.06712218
17742.96 ; 0.08138637
17743.45 ; 0.09768379
17743.93 ; 0.1155643
17744.42 ; 0.1356135
17744.9 ; 0.1567477
17745.87 ; 0.2023237
17746.84 ; 0.2479503
17747.81 ; 0.2881032
17748.34 ; 0.3056701
17748.86 ; 0.3188722
17749.42 ; 0.3279223
17749.87 ; 0.3309773
17750.0 ; 0.3311378
17750.04 ; 0.3311216
17750.14 ; 0.3309464
17750.24 ; 0.3305788
17750.43 ; 0.329353
17750.57 ; 0.3280115
17750.86 ; 0.324073
17751.15 ; 0.3186209
17751.67 ; 0.3053216
17752.18 ; 0.2884049
17753.14 ; 0.2487815
17754.1 ; 0.2036933
17755.07 ; 0.1580574
17755.55 ; 0.1368515
17756.03 ; 0.1171025
17756.51 ; 0.09907877
17756.99 ; 0.08294087
17757.47 ; 0.06875175
17757.95 ; 0.05649088
17758.23 ; 0.05019674
17758.5 ; 0.04469766
17758.78 ; 0.03955718
17759.05 ; 0.03511163
17759.33 ; 0.03099705
17759.6 ; 0.02747301
17759.88 ; 0.02424187
17760.15 ; 0.02149964
17760.43 ; 0.0190074
17760.7 ; 0.01691017
17760.98 ; 0.01501955
17761.25 ; 0.01344088
17761.53 ; 0.01202808
17761.8 ; 0.01085642
17762.08 ; 0.009814411
17762.35 ; 0.008955138
17762.63 ; 0.008194743
17762.9 ; 0.00757033
17763.18 ; 0.00701961
17763.45 ; 0.006568454
17764.0 ; 0.005845572
17764.55 ; 0.005322872
17765.1 ; 0.004942005
17765.65 ; 0.004660705
17766.2 ; 0.004448938
17766.74 ; 0.00428835
17767.6 ; 0.004096871
17768.46 ; 0.003955683
17770.18 ; 0.003756437
17773.61 ; 0.003515886
17777.04 ; 0.003373377
17780.47 ; 0.003280687
17787.34 ; 0.003170132
17794.2 ; 0.003109112
17809.03 ; 0.003043271
17823.86 ; 0.003013818
17853.52 ; 0.002987984
17912.84 ; 0.002974512
18031.47 ; 0.002967353
18277.54 ; 0.002970033
18523.61 ; 0.0029779
19015.74 ; 0.002999084
20000.0 ; 0.003085475
20071.57 ; 0.003113147
20107.35 ; 0.003150069
20125.24 ; 0.00320695
20134.19 ; 0.003271376
20143.13 ; 0.003417508
20147.28 ; 0.003561354
20149.35 ; 0.003678407
20151.42 ; 0.003863846
20152.46 ; 0.004010893
20153.49 ; 0.004228433
20154.53 ; 0.004579764
20155.05 ; 0.004836107
20155.56 ; 0.005164012
20156.08 ; 0.005601868
20156.6 ; 0.006177077
20157.12 ; 0.006930896
20157.63 ; 0.00789239
20158.15 ; 0.009158564
20158.67 ; 0.01078306
20158.93 ; 0.01175417
20159.19 ; 0.01284528
20159.7 ; 0.01537692
20160.04 ; 0.01738766
20160.37 ; 0.01961499
20160.7 ; 0.02213736
20161.03 ; 0.02497676
20161.36 ; 0.02815331
20161.69 ; 0.03168438
20162.02 ; 0.03558372
20162.35 ; 0.0398606
20163.02 ; 0.04971437
20163.68 ; 0.06089989
20164.34 ; 0.07337592
20165.0 ; 0.08682599
20166.16 ; 0.111366
20167.32 ; 0.1341239
20167.94 ; 0.1442408
20168.56 ; 0.1522208
20169.35 ; 0.1585986
20169.87 ; 0.1602054
20170.0 ; 0.160272
20170.53 ; 0.1591512
20171.17 ; 0.1548956
20171.73 ; 0.1487657
20172.29 ; 0.1406861
20173.26 ; 0.1231772
20174.22 ; 0.1033201
20175.35 ; 0.07957991
20175.91 ; 0.06850298
20176.47 ; 0.05822825
20177.04 ; 0.04876553
20177.6 ; 0.04054272
20178.16 ; 0.03341468
20178.72 ; 0.02735812
20179.11 ; 0.02374035
20179.49 ; 0.02065705
20179.87 ; 0.01797725
20180.25 ; 0.01566613
20180.63 ; 0.01368769
20181.01 ; 0.01200595
20181.39 ; 0.01058588
20181.77 ; 0.009394173
20182.16 ; 0.008375995
20182.54 ; 0.007554527
20182.92 ; 0.006875638
20183.3 ; 0.006316623
20183.68 ; 0.005857592
20184.06 ; 0.005481333
20184.44 ; 0.005173131
20184.82 ; 0.004920538
20185.59 ; 0.004538209
20186.35 ; 0.004280315
20187.11 ; 0.004098848
20187.87 ; 0.00396663
20189.39 ; 0.003787662
20190.91 ; 0.003669934
20193.48 ; 0.003537629
20196.05 ; 0.003450082
20202.15 ; 0.0033279
20208.25 ; 0.003262827
20220.45 ; 0.003200546
20244.85 ; 0.003158741
20293.65 ; 0.003142077
20437.49 ; 0.003159398
20581.32 ; 0.003186673
20868.98 ; 0.003249838
21444.3 ; 0.003410984
22019.62 ; 0.003635644
22307.28 ; 0.003782329
22451.11 ; 0.003886379
22594.94 ; 0.004062598
22633.47 ; 0.004161583
22671.99 ; 0.004338772
22691.26 ; 0.004497738
22710.52 ; 0.004750021
22720.15 ; 0.004951851
22729.78 ; 0.005233895
22739.41 ; 0.005661484
22744.23 ; 0.005964616
22749.04 ; 0.006355958
22754.82 ; 0.006998841
22757.71 ; 0.00742517
22760.6 ; 0.007952474
22763.49 ; 0.008615193
22766.38 ; 0.009463557
22769.27 ; 0.01057543
22770.72 ; 0.01126985
22772.16 ; 0.01207896
22773.93 ; 0.01328326
22775.7 ; 0.01479791
22777.47 ; 0.01675287
22778.35 ; 0.0179526
22779.23 ; 0.01935787
22780.12 ; 0.02105393
22781.0 ; 0.02310215
22781.88 ; 0.02567543
22782.76 ; 0.02902277
22783.21 ; 0.03115483
22783.65 ; 0.03360423
22784.09 ; 0.03650272
22784.53 ; 0.0399601
22784.97 ; 0.0441126
22785.41 ; 0.04912788
22785.85 ; 0.0552104
22786.29 ; 0.062607
22786.74 ; 0.07183842
22787.18 ; 0.08284938
22787.62 ; 0.09623178
22788.06 ; 0.112452
22788.5 ; 0.132037
22788.94 ; 0.1555726
22789.38 ; 0.183697
22789.82 ; 0.2170918
22790.27 ; 0.2574366
22790.71 ; 0.3036695
22791.15 ; 0.3573157
22791.59 ; 0.4190254
22792.03 ; 0.4893631
22792.47 ; 0.5687685
22792.91 ; 0.6575132
22793.35 ; 0.7556585
22793.8 ; 0.8655576
22794.24 ; 0.9818349
22795.12 ; 1.23699
22796.88 ; 1.794131
22797.84 ; 2.083453
22798.8 ; 2.327257
22799.36 ; 2.437744
22799.92 ; 2.519271
22800.0 ; 2.528345
22800.24 ; 2.551528
22800.47 ; 2.567937
22800.93 ; 2.583274
22801.0 ; 2.583541
22801.22 ; 2.580814
22801.43 ; 2.57318
22801.86 ; 2.54244
22802.4 ; 2.476182
22802.94 ; 2.38155
22803.75 ; 2.194342
22804.55 ; 1.969336
22807.51 ; 1.051238
22808.25 ; 0.8527153
22808.99 ; 0.6789062
22809.36 ; 0.6018858
22809.73 ; 0.5315057
22810.1 ; 0.4676585
22810.46 ; 0.4116146
22810.83 ; 0.3599871
22811.2 ; 0.3140789
22811.57 ; 0.2735079
22811.94 ; 0.237864
22812.31 ; 0.2067232
22812.68 ; 0.1796586
22813.05 ; 0.1562511
22813.41 ; 0.1366021
22813.78 ; 0.1192458
22814.15 ; 0.1044128
22814.52 ; 0.0917742
22814.89 ; 0.08103124
22815.26 ; 0.07191542
22815.63 ; 0.06418816
22816.0 ; 0.05763951
22816.37 ; 0.05208647
22816.74 ; 0.04737085
22817.11 ; 0.04335706
22817.48 ; 0.03992968
22817.85 ; 0.03699123
22818.59 ; 0.03226708
22819.32 ; 0.02872291
22820.06 ; 0.0259192
22820.8 ; 0.02367645
22821.54 ; 0.02183698
22822.27 ; 0.02031401
22823.75 ; 0.0178514
22825.22 ; 0.01597386
22826.97 ; 0.01423047
22828.71 ; 0.01286787
22830.46 ; 0.01176557
22832.2 ; 0.01086837
22833.95 ; 0.01011908
22835.69 ; 0.009493151
22839.18 ; 0.008504249
22842.67 ; 0.007769164
22846.16 ; 0.007207258
22849.65 ; 0.006766489
22853.13 ; 0.006414319
22860.65 ; 0.005858353
22868.16 ; 0.005486125
22875.68 ; 0.0052256
22883.19 ; 0.00503278
22898.22 ; 0.004776827
22913.24 ; 0.004626867
22943.3 ; 0.004460899
22973.35 ; 0.004383668
23076.4 ; 0.004336521
23222.39 ; 0.004413625
23368.38 ; 0.004535879
23660.35 ; 0.004842217
23806.34 ; 0.005025611
23879.34 ; 0.005124345
23952.33 ; 0.005228826
24025.33 ; 0.005340227
24098.32 ; 0.005458177
24171.31 ; 0.005583179
24207.81 ; 0.005648436
24244.3 ; 0.00571577
24270.07 ; 0.00576463
24295.83 ; 0.005814503
24321.59 ; 0.005865215
24347.35 ; 0.005917196
24373.12 ; 0.005970356
24386.0 ; 0.005997351
24398.88 ; 0.006024641
24411.76 ; 0.006052244
24424.64 ; 0.006080151
24437.52 ; 0.006108323
24450.4 ; 0.006136842
24458.99 ; 0.00615604
24467.58 ; 0.006175381
24476.17 ; 0.006194866
24484.75 ; 0.006214473
24493.34 ; 0.006234246
24497.64 ; 0.006244198
24501.93 ; 0.006254166
24506.23 ; 0.006264196
24510.52 ; 0.00627424
24514.81 ; 0.006284322
24519.1 ; 0.006294442
24524.47 ; 0.006307163
24527.16 ; 0.006313558
24529.84 ; 0.006319944
24532.53 ; 0.006326369
24535.21 ; 0.006332785
24537.9 ; 0.00633924
24540.58 ; 0.006345687
24543.54 ; 0.006352825
24546.49 ; 0.006359957
24549.44 ; 0.006367107
24552.39 ; 0.006374277
24555.34 ; 0.006381464
24558.29 ; 0.006388671
24561.24 ; 0.006395897
24564.19 ; 0.006403141
24570.1 ; 0.006417711
24576.0 ; 0.006432333
24581.9 ; 0.006447031
24587.8 ; 0.006461807
24593.17 ; 0.006475325
24598.54 ; 0.006488911
24603.91 ; 0.006502559
24609.27 ; 0.006516246
24620.01 ; 0.006543867
24630.74 ; 0.00657173
24641.48 ; 0.006599889
24652.21 ; 0.006628295
24662.95 ; 0.006657006
